505
505
505
504
504
504
504
505
505
505
505
505
505
505
505
505
505
505
505
505
505
505
505
505
505
505
505
505
505
505
505
505
505
505
505
505
505
506
506
506
506
506
506
506
506
506
506
506
506
506
506
506
506
506
506
506
506
506
506
506
506
506
506
506
506
506
506
506
506
506
506
506
506
506
506
507
509
512
516
520
526
533
539
545
549
552
554
554
553
551
548
546
544
542
541
540
539
538
537
536
535
533
532
531
531
530
529
528
527
527
526
525
525
524
523
523
522
521
521
520
520
519
519
518
518
517
517
517
516
516
515
515
515
514
514
514
513
513
513
513
512
512
512
512
511
511
511
511
511
511
511
510
510
510
510
510
510
510
510
510
510
510
509
509
510
510
510
510
510
510
510
510
510
510
510
511
511
511
511
511
512
512
512
512
512
512
512
512
511
511
511
511
511
511
510
510
510
509
509
509
509
509
509
509
508
508
508
508
508
508
508
507
507
507
507
507
507
507
506
506
506
506
506
506
506
506
506
506
505
505
505
505
505
505
505
505
505
505
505
505
505
505
505
505
505
504
504
504
504
504
504
504
504
505
505
505
505
505
504
504
504
504
504
504
504
504
504
504
504
504
504
504
504
504
504
504
504
504
504
504
504
504
504
504
504
504
504
504
504
504
504
504
504
504
504
504
504
504
504
504
504
504
504
504
504
504
504
504
504
504
504
505
505
505
505
505
505
505
505
505
505
505
505
505
505
505
505
505
505
505
505
505
505
504
504
504
504
504
504
504
504
504
505
505
505
505
505
505
505
505
505
505
505
505
505
505
505
505
505
506
506
506
506
506
506
506
506
506
506
506
506
506
506
506
506
506
506
506
506
506
507
507
507
507
507
507
507
507
506
506
506
506
506
506
506
506
506
506
507
508
509
512
516
521
527
533
540
546
550
553
554
554
552
550
547
545
543
542
540
539
538
537
536
535
534
533
532
531
530
529
529
528
527
526
526
525
524
523
523
522
522
521
521
520
519
519
518
518
517
517
516
516
516
515
515
515
514
514
514
513
513
513
513
512
512
512
512
511
511
511
511
511
511
510
510
510
510
510
510
510
510
510
510
510
510
510
510
510
510
510
510
510
510
510
510
511
511
511
511
511
511
511
512
512
512
512
512
512
512
512
512
511
511
511
511
511
511
511
510
510
510
510
510
510
509
509
509
509
509
508
508
508
508
508
508
507
507
507
507
507
507
507
507
507
506
506
506
506
506
506
506
506
506
506
506
506
506
505
505
505
505
505
505
505
505
505
505
505
505
505
505
505
505
505
505
505
505
505
505
505
505
505
505
505
505
505
505
504
504
504
504
504
505
505
505
505
505
505
505
505
505
505
505
505
505
505
505
505
505
505
505
505
505
505
505
505
505
505
505
505
505
505
505
505
505
505
505
505
505
505
505
505
505
505
505
505
505
505
505
505
505
505
505
505
505
505
505
505
505
505
505
505
505
505
505
505
505
506
506
506
506
506
506
506
506
506
506
506
506
506
506
506
506
506
506
506
506
506
506
506
506
506
506
506
506
506
506
506
506
506
506
506
506
506
506
506
506
506
507
507
507
507
507
507
507
507
507
507
507
507
507
507
507
507
507
507
507
507
508
508
508
508
508
508
508
508
508
508
508
508
508
508
508
508
508
508
508
508
508
508
508
508
508
507
507
507
507
507
507
507
507
508
508
509
510
512
516
520
526
532
539
544
549
552
554
554
552
550
548
546
544
542
541
540
539
538
537
536
535
534
533
532
531
530
529
529
528
527
527
526
525
525
524
523
523
522
522
521
520
520
519
519
519
518
518
518
517
517
516
516
516
515
515
515
515
514
514
514
514
513
513
513
513
512
512
512
512
512
512
512
512
512
512
512
512
511
511
511
511
511
512
512
512
512
512
512
512
512
513
513
513
513
513
514
514
514
515
515
515
515
515
515
515
515
515
515
515
515
514
514
514
514
514
513
513
513
512
512
512
512
512
511
511
511
511
510
510
510
510
510
509
509
509
509
509
509
509
508
508
508
508
508
508
508
508
508
507
507
507
507
507
507
507
507
507
507
507
507
507
507
507
507
506
506
506
506
506
506
506
506
506
506
506
506
506
506
506
506
506
506
506
506
506
506
506
506
506
506
506
506
506
506
506
506
506
506
506
506
506
506
506
506
506
506
506
506
506
506
506
506
506
506
506
506
506
506
506
506
506
506
506
506
505
505
505
505
506
506
506
506
506
506
506
506
506
506
506
506
506
506
506
506
506
506
506
506
506
506
506
506
506
506
506
506
506
506
506
506
506
506
506
506
506
506
507
507
507
507
507
507
507
507
507
507
507
507
507
507
507
507
507
507
507
507
507
507
507
507
507
507
507
507
507
507
507
507
507
507
507
507
507
507
507
507
507
507
507
507
507
507
507
507
507
507
507
507
507
507
507
507
507
507
507
507
507
507
507
507
507
507
507
507
507
507
507
507
507
507
508
508
508
508
508
508
508
508
508
508
508
508
508
508
508
508
508
508
508
508
508
508
508
508
508
508
508
508
508
508
508
508
508
508
509
510
512
516
520
526
532
539
545
551
555
557
558
558
556
554
552
549
547
546
544
543
542
541
540
538
537
536
535
534
533
532
531
530
530
529
528
527
526
526
525
524
524
523
523
522
522
521
521
520
520
519
519
518
518
517
517
517
516
516
516
515
515
515
515
514
514
514
514
513
513
513
513
512
512
512
512
512
512
512
512
512
511
511
511
511
511
511
511
511
511
512
512
512
512
512
512
513
513
513
514
514
515
515
516
516
516
516
516
516
516
516
516
516
516
516
516
516
515
515
515
514
514
514
514
513
513
513
513
512
512
512
511
511
511
511
510
510
510
510
510
509
509
509
509
509
508
508
508
508
508
508
508
507
507
507
507
507
507
507
506
506
506
506
506
506
506
506
506
506
506
506
505
505
505
505
505
505
505
505
505
505
505
505
505
505
505
505
505
505
505
505
505
505
505
505
505
505
505
505
505
505
505
505
505
505
505
504
504
504
504
504
504
504
504
504
504
505
505
505
505
505
505
505
505
505
505
505
505
505
505
505
505
505
505
505
505
505
505
505
505
505
505
505
505
505
505
504
504
504
504
505
505
505
505
505
505
505
505
505
505
505
505
505
505
505
505
505
505
505
505
505
505
505
505
505
505
505
505
505
505
505
505
505
505
505
505
505
505
505
505
505
505
505
505
505
505
505
505
506
506
506
506
506
506
506
506
506
506
506
506
506
506
506
506
506
506
506
506
506
507
507
507
507
507
507
507
507
507
507
507
507
507
507
507
506
506
506
506
506
507
508
509
512
516
521
527
533
540
545
549
552
553
552
551
549
546
544
542
540
539
538
537
536
535
534
533
532
531
530
529
529
528
527
527
526
525
525
524
523
523
522
521
521
520
520
520
519
519
518
518
517
517
517
516
516
515
515
515
515
514
514
514
514
513
513
513
513
512
512
512
512
512
512
511
511
511
511
511
511
511
511
511
510
510
510
510
510
510
511
511
511
511
511
512
512
512
513
513
513
514
514
514
514
515
515
515
515
516
516
516
516
516
516
516
515
515
515
514
514
514
514
513
513
513
513
512
512
512
511
511
511
511
510
510
510
510
510
509
509
509
509
509
508
508
508
508
508
508
508
507
507
507
507
507
507
507
507
506
506
506
506
506
506
506
506
506
506
506
506
506
505
505
505
505
505
505
505
505
505
505
505
505
505
505
505
505
505
505
505
505
505
505
505
505
505
505
505
505
505
505
505
505
505
505
505
505
505
505
505
505
505
505
505
505
505
505
505
504
504
504
504
505
505
505
505
505
505
505
505
505
505
505
505
505
505
505
505
505
505
505
505
505
504
504
504
504
504
504
504
504
504
504
505
505
505
505
505
505
505
505
505
505
505
505
505
505
505
505
505
505
505
505
505
505
505
505
505
505
505
505
505
505
505
505
505
505
506
506
506
506
506
506
506
506
506
506
506
506
506
506
506
506
506
506
506
506
506
506
506
506
506
506
506
506
506
506
506
506
506
506
506
506
506
506
506
506
507
507
507
507
507
507
507
507
507
507
507
507
507
507
507
507
507
507
507
507
507
507
507
507
507
507
507
507
507
507
507
507
507
507
507
507
507
507
507
507
507
507
507
507
507
507
507
507
507
507
507
507
507
507
507
507
508
508
508
508
508
508
508
508
508
508
508
508
508
508
508
508
508
509
509
509
509
509
509
509
509
509
509
509
509
509
509
509
509
509
509
509
509
509
509
509
509
508
508
508
508
509
511
513
516
521
527
533
540
546
551
555
557
557
556
554
552
549
547
545
544
543
541
540
539
538
537
536
535
534
533
532
531
530
530
529
528
527
526
526
525
525
524
523
523
522
522
521
521
520
520
519
519
519
518
518
517
517
517
516
516
516
515
515
515
514
514
514
513
513
513
513
513
513
512
512
512
512
512
512
512
512
511
511
511
511
511
511
511
511
511
511
512
512
512
512
512
513
513
513
513
513
514
514
514
514
514
514
514
515
515
515
515
515
515
515
515
515
515
515
514
514
514
514
513
513
513
513
512
512
512
512
511
511
511
511
511
510
510
510
510
510
509
509
509
509
509
508
508
508
508
508
508
507
507
507
507
507
507
507
507
507
507
507
506
506
506
506
506
506
506
506
506
506
506
506
506
505
505
505
505
505
505
505
505
505
505
505
505
505
505
505
505
505
505
505
505
505
505
505
505
505
505
505
504
504
504
504
504
504
504
504
504
504
504
504
504
504
504
504
504
504
504
504
504
504
504
504
504
504
504
504
504
504
504
504
504
504
504
504
504
504
504
504
504
504
504
505
505
505
505
505
505
505
505
505
505
505
505
505
505
505
505
505
505
505
505
505
505
505
505
505
505
505
505
505
505
505
505
505
505
505
505
505
505
505
505
505
505
505
505
505
505
505
505
505
505
505
505
505
505
505
505
505
505
505
506
506
506
506
506
506
506
506
506
506
506
506
506
506
506
506
506
506
507
507
507
507
507
507
507
507
507
507
507
507
507
507
507
507
507
507
507
507
507
507
507
507
507
507
507
507
507
507
507
507
507
507
507
507
507
507
507
507
507
507
507
508
510
513
518
523
529
535
541
546
550
552
552
551
549
547
545
543
541
539
538
537
536
535
534
533
532
531
530
530
529
528
527
527
526
525
525
524
524
523
522
522
521
521
520
520
519
519
518
518
518
517
517
516
516
516
516
515
515
515
514
514
514
514
513
513
513
513
513
512
512
512
512
512
512
511
511
511
511
511
511
511
511
511
511
511
511
511
511
511
512
512
512
512
513
513
513
514
514
514
515
515
516
516
516
517
517
517
517
518
518
518
518
517
517
517
517
516
516
516
515
515
515
514
514
514
513
513
513
513
512
512
512
511
511
511
511
510
510
510
510
510
510
509
509
509
509
508
508
508
508
508
508
507
507
507
507
507
507
507
507
507
507
507
506
506
506
506
506
506
506
506
506
505
505
505
505
505
505
505
505
505
505
505
505
505
505
505
505
505
505
505
505
505
505
505
505
505
505
505
505
505
505
505
504
504
504
504
504
504
504
504
504
505
505
505
505
505
505
505
505
505
505
505
505
505
505
505
505
505
505
505
505
505
505
504
504
504
504
504
504
504
504
505
505
505
505
505
505
505
505
505
505
505
505
505
505
505
505
505
505
505
505
505
505
505
505
505
505
505
505
505
505
505
505
505
505
505
506
506
506
506
506
506
506
506
506
506
506
506
506
506
506
506
506
507
507
507
507
507
507
507
507
507
507
507
507
507
507
507
507
507
507
507
506
506
506
506
506
506
506
506
506
506
506
507
508
509
512
516
521
527
534
540
546
550
553
554
554
553
550
548
546
544
542
541
540
539
538
537
536
535
533
532
531
531
530
529
528
528
527
526
525
525
524
523
523
522
522
521
521
520
520
519
519
518
518
517
517
516
516
516
515
515
514
514
514
514
513
513
513
513
512
512
512
512
512
512
511
511
511
511
511
511
511
511
511
511
511
511
511
511
511
511
511
512
512
512
512
512
512
513
513
514
514
514
515
515
516
516
516
517
517
517
517
517
517
517
517
517
517
516
516
516
516
515
515
515
514
514
514
513
513
513
512
512
512
512
511
511
511
511
510
510
510
510
510
509
509
509
509
509
509
509
508
508
508
508
507
507
507
507
507
507
507
506
506
506
506
506
506
506
506
506
506
506
506
506
506
506
506
506
505
505
505
505
505
505
505
505
505
505
505
505
505
505
506
506
506
506
506
506
506
506
506
506
506
506
506
506
506
506
506
506
506
506
506
506
506
506
506
506
506
506
506
506
506
506
506
506
506
506
506
506
506
506
506
507
507
507
507
507
507
507
507
507
507
507
507
507
507
507
507
507
507
507
507
507
507
507
507
507
507
507
507
507
507
507
507
507
507
507
507
507
507
508
508
508
508
508
508
508
508
508
508
508
508
508
509
509
509
509
509
509
509
510
510
510
510
510
510
510
510
510
510
510
510
510
510
511
511
511
511
511
511
511
511
511
511
511
512
512
512
513
513
513
514
514
515
515
515
516
516
517
517
517
517
517
517
517
517
517
517
517
517
517
517
517
517
518
518
518
518
518
518
518
518
518
517
517
517
517
517
517
518
519
522
526
530
536
542
549
555
560
564
566
567
567
565
563
560
558
556
554
552
550
549
548
547
546
545
544
543
542
542
541
541
541
540
540
540
540
540
540
539
539
539
539
539
539
539
539
539
538
538
538
538
538
539
539
540
541
542
543
544
545
545
546
547
548
549
551
552
553
555
557
559
562
564
566
569
571
574
577
581
584
588
592
595
599
602
606
609
613
616
620
624
627
630
633
636
639
642
644
647
649
651
654
656
658
660
662
663
665
667
668
670
671
673
674
675
677
678
679
680
681
682
683
683
684
685
685
686
686
686
686
685
685
684
683
683
683
683
684
684
685
685
686
686
686
686
687
687
687
687
687
687
687
687
687
687
687
687
687
687
686
686
686
686
686
686
685
685
685
684
684
684
683
683
683
682
682
682
681
681
680
680
680
679
679
678
678
677
677
676
676
675
675
674
674
673
673
672
672
671
671
670
670
669
668
668
667
667
666
666
665
664
664
663
663
662
662
661
660
660
659
659
658
657
657
656
656
655
655
654
653
653
652
652
651
650
650
649
649
648
647
647
646
646
645
645
644
643
643
642
642
641
640
640
639
638
638
637
637
637
636
636
635
634
634
633
632
632
631
631
630
629
629
628
628
627
627
626
626
625
625
625
624
624
623
622
622
621
621
620
620
619
618
618
617
617
616
616
615
615
614
614
613
613
612
612
611
611
610
610
609
609
608
608
607
607
606
606
605
605
604
604
603
603
603
602
602
601
601
601
600
600
600
599
599
599
598
598
597
597
596
596
596
595
595
594
594
594
593
593
592
592
591
591
591
590
590
589
589
589
588
588
588
587
587
586
586
586
585
585
585
584
584
583
583
583
582
582
582
581
581
581
580
580
580
579
579
579
578
578
578
577
577
577
576
576
576
575
575
575
574
574
574
573
573
573
572
572
572
571
571
571
571
570
570
570
569
569
569
569
568
568
568
567
567
567
567
566
566
566
565
565
565
565
564
564
564
564
563
563
563
563
562
562
562
561
561
561
561
560
560
560
560
560
559
559
559
559
558
558
558
558
557
557
557
557
556
556
556
556
556
555
555
555
555
554
554
554
554
554
553
553
553
553
553
552
552
552
552
551
551
551
551
551
550
550
550
550
550
550
549
549
549
549
549
548
548
548
548
548
547
547
547
547
547
547
546
546
546
546
546
545
545
545
545
545
545
544
544
544
544
544
544
543
543
543
543
543
543
543
542
542
542
542
542
542
541
541
541
541
541
541
541
540
540
540
540
540
540
540
539
539
539
539
539
539
539
538
538
538
538
538
538
538
537
537
537
537
537
537
537
537
536
536
536
536
536
536
536
536
535
535
535
535
535
535
535
535
534
534
534
534
534
534
534
534
534
533
533
533
533
533
533
533
533
533
532
532
532
532
532
532
532
532
532
531
531
531
531
531
531
531
531
531
531
530
530
530
530
530
530
530
530
530
530
530
529
529
529
529
529
529
529
529
529
529
529
528
528
528
528
528
528
528
528
528
528
528
528
527
527
527
527
527
527
527
527
527
527
527
527
526
526
526
526
526
526
526
526
526
526
526
526
526
525
525
525
525
525
525
525
525
525
525
525
525
525
525
525
524
524
524
524
524
524
524
524
524
524
524
524
524
524
524
523
523
523
523
523
523
523
523
523
523
523
523
523
523
523
523
523
522
522
522
522
522
522
522
522
522
522
522
522
522
522
522
522
522
522
521
521
521
521
521
521
521
521
521
521
521
521
521
521
521
521
521
521
521
521
520
520
520
520
520
520
520
520
520
520
520
520
520
520
520
520
520
520
520
520
520
520
519
519
519
519
519
519
519
519
519
519
519
519
519
519
519
519
519
519
519
519
519
519
519
519
519
518
518
518
518
518
518
518
518
518
518
518
518
518
518
518
518
518
518
518
518
518
518
518
518
518
518
518
518
517
517
517
517
517
517
517
517
517
517
517
517
517
517
517
517
517
517
517
517
517
517
517
517
517
517
517
517
517
517
517
517
517
517
516
516
516
516
516
516
516
516
516
516
516
516
516
516
516
516
516
516
516
516
516
516
516
516
516
516
516
516
516
516
516
516
516
516
515
514
513
511
507
503
497
491
484
477
470
464
458
453
448
443
438
434
429
425
420
416
412
408
405
401
398
395
392
389
386
383
380
377
375
372
370
367
365
363
361
359
357
356
354
353
351
350
348
347
345
344
343
342
341
340
338
337
337
336
335
334
333
333
332
331
331
331
330
330
330
329
329
329
329
329
328
328
328
328
327
327
327
327
327
327
327
327
327
327
327
327
327
327
327
327
327
328
328
328
328
328
329
329
329
329
330
331
332
335
338
343
349
355
362
368
374
378
381
382
382
381
379
377
375
373
372
371
370
370
369
369
368
367
367
366
366
366
365
365
365
365
365
364
364
364
364
364
364
364
364
364
364
364
364
364
364
365
365
365
365
365
366
366
366
366
367
367
367
367
368
368
368
369
369
369
370
370
371
371
372
372
372
373
373
374
374
375
375
375
376
376
377
378
378
379
379
380
381
381
382
383
384
384
385
386
387
388
389
390
391
392
392
393
394
395
395
396
396
397
397
397
398
398
398
399
399
399
400
400
400
400
401
401
401
402
402
402
402
403
403
403
404
404
404
405
405
405
406
406
406
406
407
407
407
408
408
409
409
409
410
410
410
411
411
412
412
413
413
414
414
414
415
415
415
416
416
416
417
417
418
418
418
419
419
419
420
420
420
421
421
422
422
422
423
423
423
424
424
425
425
425
426
426
427
427
427
428
428
429
429
429
429
430
430
430
430
431
431
432
432
432
433
433
434
434
434
435
435
436
436
436
436
437
437
437
437
438
438
438
439
439
439
440
440
440
441
441
441
442
442
442
443
443
443
443
443
444
444
444
445
445
445
446
446
446
447
447
447
448
448
448
448
449
449
449
449
450
450
450
450
450
451
451
451
451
452
452
452
453
453
453
454
454
454
454
455
455
455
455
456
456
456
457
457
457
457
458
458
458
458
459
459
459
459
460
460
460
460
460
460
460
461
461
461
461
461
462
462
463
464
466
469
473
478
484
491
496
501
505
507
507
506
505
503
501
499
498
497
496
495
495
494
493
492
492
491
490
489
489
488
488
487
487
487
486
486
485
485
484
484
484
483
483
482
482
482
482
481
481
481
481
481
480
480
480
480
480
480
480
479
479
479
479
479
479
479
479
479
479
479
479
479
479
479
479
479
479
479
479
479
479
479
479
479
480
480
480
480
480
480
480
480
480
480
480
481
481
481
481
481
482
482
482
482
483
483
483
483
483
483
483
483
483
483
483
483
483
483
483
483
483
483
483
483
483
483
483
483
483
483
483
483
483
483
483
483
483
483
483
483
483
483
483
483
483
483
483
484
484
484
484
484
484
484
484
484
484
484
484
484
484
485
485
485
485
485
485
485
485
485
485
485
485
485
485
485
485
486
486
486
486
486
486
486
486
486
486
486
486
486
486
486
487
487
487
487
487
487
487
487
487
487
487
487
487
487
487
487
487
487
488
488
488
488
488
488
488
488
489
489
489
489
489
489
489
489
489
490
490
490
490
490
490
490
490
490
490
491
491
491
491
491
491
491
491
491
491
492
492
492
492
492
492
492
492
492
492
492
492
492
492
492
492
492
492
492
492
492
493
493
493
493
493
493
493
493
493
493
493
494
494
494
494
494
494
494
494
494
494
494
495
495
495
495
495
496
496
496
496
496
496
496
496
496
497
497
497
497
497
497
497
497
497
497
497
497
497
497
497
497
497
497
497
497
497
497
497
497
497
497
498
498
499
500
503
507
511
517
523
528
533
536
537
538
537
535
533
531
529
528
527
526
525
525
524
523
522
521
520
520
519
518
518
517
517
516
515
515
514
514
513
513
512
512
511
511
511
510
510
509
509
509
508
508
508
507
507
507
506
506
506
506
505
505
505
505
505
504
504
504
504
504
504
504
503
503
503
503
503
503
503
503
503
503
503
503
502
502
502
502
502
502
502
502
502
502
502
502
502
502
502
502
502
502
502
503
503
503
503
503
503
503
503
503
503
503
503
503
503
503
503
503
503
502
502
502
502
502
502
502
502
502
502
502
502
502
502
501
501
501
501
501
501
501
501
501
501
501
501
501
501
501
501
501
501
501
501
501
501
501
501
501
501
501
501
501
501
501
501
501
501
501
501
501
501
501
501
501
501
501
501
501
501
501
501
501
501
501
501
501
501
501
502
502
502
502
502
502
502
502
502
502
502
502
502
502
502
502
502
502
502
502
502
502
502
502
502
502
502
502
502
502
502
502
502
502
502
502
502
502
502
502
502
502
502
502
503
503
503
503
503
503
503
503
503
503
503
503
503
503
503
503
503
503
503
503
503
503
503
503
503
504
504
504
504
504
504
504
504
504
504
504
504
504
504
504
504
504
504
504
504
504
504
504
504
504
504
504
504
504
505
505
505
505
505
505
505
505
505
505
505
505
505
505
505
505
505
505
505
506
508
511
515
520
526
531
536
540
543
544
544
542
540
538
536
535
534
533
532
531
531
530
529
528
527
526
525
524
524
523
523
522
521
521
520
520
519
519
518
518
517
517
516
516
516
515
515
514
514
514
513
513
513
512
512
512
511
511
511
511
510
510
510
510
510
509
509
509
509
509
509
509
508
508
508
508
508
508
508
508
508
508
507
507
507
507
507
507
507
507
507
507
507
507
507
507
507
507
507
507
507
507
507
507
507
507
507
507
507
507
507
507
507
507
507
507
507
507
507
507
507
506
506
506
506
506
506
506
506
506
506
506
506
506
506
506
505
505
505
505
505
505
505
505
505
505
505
505
505
505
505
504
504
504
504
504
505
505
505
505
505
505
505
505
504
504
504
504
504
504
504
504
504
504
504
504
504
504
504
504
504
504
504
504
504
505
505
505
505
505
505
505
505
505
505
505
505
505
505
505
505
505
505
505
505
504
504
504
504
504
504
504
504
504
504
505
505
505
505
505
505
505
505
505
505
505
505
505
505
505
505
505
505
505
